# Pulseq sequence file
# Created by PyPulseq

[VERSION]
major 1
minor 4
revision 2

[DEFINITIONS]
AdcRasterTime 1e-07 
BlockDurationRaster 1e-05 
GradientRasterTime 1e-05 
Name humble_bssfp 
RadiofrequencyRasterTime 1e-06 
TotalDuration 0.98496 

# Format of blocks:
# NUM DUR RF  GX  GY  GZ  ADC  EXT
[BLOCKS]
   1 120   1   0   0   1  0  0
   2  72   0   0   0   0  0  0
   3 120   2   0   0   1  0  0
   4  58   0   4   3   2  0  0
   5 148   0   5   0   0  1  0
   6  58   0   4   6   7  0  0
   7 120   3   0   0   1  0  0
   8  58   0   4   8   2  0  0
   9 148   0   5   0   0  1  0
  10  58   0   4   9   7  0  0
  11 120   2   0   0   1  0  0
  12  58   0   4  10   2  0  0
  13 148   0   5   0   0  1  0
  14  58   0   4  11   7  0  0
  15 120   3   0   0   1  0  0
  16  58   0   4  12   2  0  0
  17 148   0   5   0   0  1  0
  18  58   0   4  13   7  0  0
  19 120   2   0   0   1  0  0
  20  58   0   4  14   2  0  0
  21 148   0   5   0   0  1  0
  22  58   0   4  15   7  0  0
  23 120   3   0   0   1  0  0
  24  58   0   4  16   2  0  0
  25 148   0   5   0   0  1  0
  26  58   0   4  17   7  0  0
  27 120   2   0   0   1  0  0
  28  58   0   4  18   2  0  0
  29 148   0   5   0   0  1  0
  30  58   0   4  19   7  0  0
  31 120   3   0   0   1  0  0
  32  58   0   4  20   2  0  0
  33 148   0   5   0   0  1  0
  34  58   0   4  21   7  0  0
  35 120   2   0   0   1  0  0
  36  58   0   4  22   2  0  0
  37 148   0   5   0   0  1  0
  38  58   0   4  23   7  0  0
  39 120   3   0   0   1  0  0
  40  58   0   4  24   2  0  0
  41 148   0   5   0   0  1  0
  42  58   0   4  25   7  0  0
  43 120   2   0   0   1  0  0
  44  58   0   4  26   2  0  0
  45 148   0   5   0   0  1  0
  46  58   0   4  27   7  0  0
  47 120   3   0   0   1  0  0
  48  58   0   4  28   2  0  0
  49 148   0   5   0   0  1  0
  50  58   0   4  29   7  0  0
  51 120   2   0   0   1  0  0
  52  58   0   4  30   2  0  0
  53 148   0   5   0   0  1  0
  54  58   0   4  31   7  0  0
  55 120   3   0   0   1  0  0
  56  58   0   4  32   2  0  0
  57 148   0   5   0   0  1  0
  58  58   0   4  33   7  0  0
  59 120   2   0   0   1  0  0
  60  58   0   4  34   2  0  0
  61 148   0   5   0   0  1  0
  62  58   0   4  35   7  0  0
  63 120   3   0   0   1  0  0
  64  58   0   4  36   2  0  0
  65 148   0   5   0   0  1  0
  66  58   0   4  37   7  0  0
  67 120   2   0   0   1  0  0
  68  58   0   4  38   2  0  0
  69 148   0   5   0   0  1  0
  70  58   0   4  39   7  0  0
  71 120   3   0   0   1  0  0
  72  58   0   4  40   2  0  0
  73 148   0   5   0   0  1  0
  74  58   0   4  41   7  0  0
  75 120   2   0   0   1  0  0
  76  58   0   4  42   2  0  0
  77 148   0   5   0   0  1  0
  78  58   0   4  43   7  0  0
  79 120   3   0   0   1  0  0
  80  58   0   4  44   2  0  0
  81 148   0   5   0   0  1  0
  82  58   0   4  45   7  0  0
  83 120   2   0   0   1  0  0
  84  58   0   4  46   2  0  0
  85 148   0   5   0   0  1  0
  86  58   0   4  47   7  0  0
  87 120   3   0   0   1  0  0
  88  58   0   4  48   2  0  0
  89 148   0   5   0   0  1  0
  90  58   0   4  49   7  0  0
  91 120   2   0   0   1  0  0
  92  58   0   4  50   2  0  0
  93 148   0   5   0   0  1  0
  94  58   0   4  51   7  0  0
  95 120   3   0   0   1  0  0
  96  58   0   4  52   2  0  0
  97 148   0   5   0   0  1  0
  98  58   0   4  53   7  0  0
  99 120   2   0   0   1  0  0
 100  58   0   4  54   2  0  0
 101 148   0   5   0   0  1  0
 102  58   0   4  55   7  0  0
 103 120   3   0   0   1  0  0
 104  58   0   4  56   2  0  0
 105 148   0   5   0   0  1  0
 106  58   0   4  57   7  0  0
 107 120   2   0   0   1  0  0
 108  58   0   4  58   2  0  0
 109 148   0   5   0   0  1  0
 110  58   0   4  59   7  0  0
 111 120   3   0   0   1  0  0
 112  58   0   4  60   2  0  0
 113 148   0   5   0   0  1  0
 114  58   0   4  61   7  0  0
 115 120   2   0   0   1  0  0
 116  58   0   4  62   2  0  0
 117 148   0   5   0   0  1  0
 118  58   0   4  63   7  0  0
 119 120   3   0   0   1  0  0
 120  58   0   4  64   2  0  0
 121 148   0   5   0   0  1  0
 122  58   0   4  65   7  0  0
 123 120   2   0   0   1  0  0
 124  58   0   4  66   2  0  0
 125 148   0   5   0   0  1  0
 126  58   0   4  67   7  0  0
 127 120   3   0   0   1  0  0
 128  58   0   4  68   2  0  0
 129 148   0   5   0   0  1  0
 130  58   0   4  69   7  0  0
 131 120   2   0   0   1  0  0
 132  58   0   4  70   2  0  0
 133 148   0   5   0   0  1  0
 134  58   0   4  71   7  0  0
 135 120   3   0   0   1  0  0
 136  58   0   4  72   2  0  0
 137 148   0   5   0   0  1  0
 138  58   0   4  73   7  0  0
 139 120   2   0   0   1  0  0
 140  58   0   4  74   2  0  0
 141 148   0   5   0   0  1  0
 142  58   0   4  75   7  0  0
 143 120   3   0   0   1  0  0
 144  58   0   4  76   2  0  0
 145 148   0   5   0   0  1  0
 146  58   0   4  77   7  0  0
 147 120   2   0   0   1  0  0
 148  58   0   4  78   2  0  0
 149 148   0   5   0   0  1  0
 150  58   0   4  79   7  0  0
 151 120   3   0   0   1  0  0
 152  58   0   4  80   2  0  0
 153 148   0   5   0   0  1  0
 154  58   0   4  81   7  0  0
 155 120   2   0   0   1  0  0
 156  58   0   4  82   2  0  0
 157 148   0   5   0   0  1  0
 158  58   0   4  83   7  0  0
 159 120   3   0   0   1  0  0
 160  58   0   4  84   2  0  0
 161 148   0   5   0   0  1  0
 162  58   0   4  85   7  0  0
 163 120   2   0   0   1  0  0
 164  58   0   4  86   2  0  0
 165 148   0   5   0   0  1  0
 166  58   0   4  87   7  0  0
 167 120   3   0   0   1  0  0
 168  58   0   4  88   2  0  0
 169 148   0   5   0   0  1  0
 170  58   0   4  89   7  0  0
 171 120   2   0   0   1  0  0
 172  58   0   4  90   2  0  0
 173 148   0   5   0   0  1  0
 174  58   0   4  91   7  0  0
 175 120   3   0   0   1  0  0
 176  58   0   4  92   2  0  0
 177 148   0   5   0   0  1  0
 178  58   0   4  93   7  0  0
 179 120   2   0   0   1  0  0
 180  58   0   4  94   2  0  0
 181 148   0   5   0   0  1  0
 182  58   0   4  95   7  0  0
 183 120   3   0   0   1  0  0
 184  58   0   4  96   2  0  0
 185 148   0   5   0   0  1  0
 186  58   0   4  97   7  0  0
 187 120   2   0   0   1  0  0
 188  58   0   4  98   2  0  0
 189 148   0   5   0   0  1  0
 190  58   0   4  99   7  0  0
 191 120   3   0   0   1  0  0
 192  58   0   4 100   2  0  0
 193 148   0   5   0   0  1  0
 194  58   0   4 101   7  0  0
 195 120   2   0   0   1  0  0
 196  58   0   4 102   2  0  0
 197 148   0   5   0   0  1  0
 198  58   0   4 103   7  0  0
 199 120   3   0   0   1  0  0
 200  58   0   4 104   2  0  0
 201 148   0   5   0   0  1  0
 202  58   0   4 105   7  0  0
 203 120   2   0   0   1  0  0
 204  58   0   4 106   2  0  0
 205 148   0   5   0   0  1  0
 206  58   0   4 107   7  0  0
 207 120   3   0   0   1  0  0
 208  58   0   4 108   2  0  0
 209 148   0   5   0   0  1  0
 210  58   0   4 109   7  0  0
 211 120   2   0   0   1  0  0
 212  58   0   4 110   2  0  0
 213 148   0   5   0   0  1  0
 214  58   0   4 111   7  0  0
 215 120   3   0   0   1  0  0
 216  58   0   4 112   2  0  0
 217 148   0   5   0   0  1  0
 218  58   0   4 113   7  0  0
 219 120   2   0   0   1  0  0
 220  58   0   4 114   2  0  0
 221 148   0   5   0   0  1  0
 222  58   0   4 115   7  0  0
 223 120   3   0   0   1  0  0
 224  58   0   4 116   2  0  0
 225 148   0   5   0   0  1  0
 226  58   0   4 117   7  0  0
 227 120   2   0   0   1  0  0
 228  58   0   4 118   2  0  0
 229 148   0   5   0   0  1  0
 230  58   0   4 119   7  0  0
 231 120   3   0   0   1  0  0
 232  58   0   4 120   2  0  0
 233 148   0   5   0   0  1  0
 234  58   0   4 121   7  0  0
 235 120   2   0   0   1  0  0
 236  58   0   4 122   2  0  0
 237 148   0   5   0   0  1  0
 238  58   0   4 123   7  0  0
 239 120   3   0   0   1  0  0
 240  58   0   4 124   2  0  0
 241 148   0   5   0   0  1  0
 242  58   0   4 125   7  0  0
 243 120   2   0   0   1  0  0
 244  58   0   4 126   2  0  0
 245 148   0   5   0   0  1  0
 246  58   0   4 127   7  0  0
 247 120   3   0   0   1  0  0
 248  58   0   4 128   2  0  0
 249 148   0   5   0   0  1  0
 250  58   0   4 129   7  0  0
 251 120   2   0   0   1  0  0
 252  58   0   4 130   2  0  0
 253 148   0   5   0   0  1  0
 254  58   0   4 131   7  0  0
 255 120   3   0   0   1  0  0
 256  58   0   4 132   2  0  0
 257 148   0   5   0   0  1  0
 258  58   0   4 133   7  0  0
 259 120   2   0   0   1  0  0
 260  58   0   4 134   2  0  0
 261 148   0   5   0   0  1  0
 262  58   0   4 135   7  0  0
 263 120   3   0   0   1  0  0
 264  58   0   4 136   2  0  0
 265 148   0   5   0   0  1  0
 266  58   0   4 137   7  0  0
 267 120   2   0   0   1  0  0
 268  58   0   4 138   2  0  0
 269 148   0   5   0   0  1  0
 270  58   0   4 139   7  0  0
 271 120   3   0   0   1  0  0
 272  58   0   4 140   2  0  0
 273 148   0   5   0   0  1  0
 274  58   0   4 141   7  0  0
 275 120   2   0   0   1  0  0
 276  58   0   4 142   2  0  0
 277 148   0   5   0   0  1  0
 278  58   0   4 143   7  0  0
 279 120   3   0   0   1  0  0
 280  58   0   4 144   2  0  0
 281 148   0   5   0   0  1  0
 282  58   0   4 145   7  0  0
 283 120   2   0   0   1  0  0
 284  58   0   4 146   2  0  0
 285 148   0   5   0   0  1  0
 286  58   0   4 147   7  0  0
 287 120   3   0   0   1  0  0
 288  58   0   4 148   2  0  0
 289 148   0   5   0   0  1  0
 290  58   0   4 149   7  0  0
 291 120   2   0   0   1  0  0
 292  58   0   4 150   2  0  0
 293 148   0   5   0   0  1  0
 294  58   0   4 151   7  0  0
 295 120   3   0   0   1  0  0
 296  58   0   4 152   2  0  0
 297 148   0   5   0   0  1  0
 298  58   0   4 153   7  0  0
 299 120   2   0   0   1  0  0
 300  58   0   4 154   2  0  0
 301 148   0   5   0   0  1  0
 302  58   0   4 155   7  0  0
 303 120   3   0   0   1  0  0
 304  58   0   4 156   2  0  0
 305 148   0   5   0   0  1  0
 306  58   0   4 157   7  0  0
 307 120   2   0   0   1  0  0
 308  58   0   4 158   2  0  0
 309 148   0   5   0   0  1  0
 310  58   0   4 159   7  0  0
 311 120   3   0   0   1  0  0
 312  58   0   4 160   2  0  0
[RF]
1       369.21 1 2 0 100 0 0
2       738.42 1 2 0 100 0 0
3       738.42 1 3 0 100 0 0

# Format of trapezoid gradients:
# id amplitude rise flat fall delay
# ..      Hz/m   us   us   us    us
[TRAP]
 1       800000 100 1000 100   0
 2 -1.25714e+06 150  200 150   0
 3    -1.25e+06 150  250 150   0
 4 -1.25363e+06 150  280 150   0
 5       781250 100 1280 100   0
 6     1.25e+06 150  250 150   0
 7 -1.25714e+06 150  200 150  80
 8  -1.2402e+06 150  250 150   0
 9   1.2402e+06 150  250 150   0
10 -1.23039e+06 150  250 150   0
11  1.23039e+06 150  250 150   0
12 -1.22059e+06 150  250 150   0
13  1.22059e+06 150  250 150   0
14 -1.21078e+06 150  250 150   0
15  1.21078e+06 150  250 150   0
16 -1.20098e+06 150  250 150   0
17  1.20098e+06 150  250 150   0
18 -1.19118e+06 150  250 150   0
19  1.19118e+06 150  250 150   0
20 -1.18137e+06 150  250 150   0
21  1.18137e+06 150  250 150   0
22 -1.17157e+06 150  250 150   0
23  1.17157e+06 150  250 150   0
24 -1.16176e+06 150  250 150   0
25  1.16176e+06 150  250 150   0
26 -1.15196e+06 150  250 150   0
27  1.15196e+06 150  250 150   0
28 -1.14216e+06 150  250 150   0
29  1.14216e+06 150  250 150   0
30 -1.13235e+06 150  250 150   0
31  1.13235e+06 150  250 150   0
32 -1.12255e+06 150  250 150   0
33  1.12255e+06 150  250 150   0
34 -1.11275e+06 150  250 150   0
35  1.11275e+06 150  250 150   0
36 -1.10294e+06 150  250 150   0
37  1.10294e+06 150  250 150   0
38 -1.09314e+06 150  250 150   0
39  1.09314e+06 150  250 150   0
40 -1.08333e+06 150  250 150   0
41  1.08333e+06 150  250 150   0
42 -1.07353e+06 150  250 150   0
43  1.07353e+06 150  250 150   0
44 -1.06373e+06 150  250 150   0
45  1.06373e+06 150  250 150   0
46 -1.05392e+06 150  250 150   0
47  1.05392e+06 150  250 150   0
48 -1.04412e+06 150  250 150   0
49  1.04412e+06 150  250 150   0
50 -1.03431e+06 150  250 150   0
51  1.03431e+06 150  250 150   0
52 -1.02451e+06 150  250 150   0
53  1.02451e+06 150  250 150   0
54 -1.01471e+06 150  250 150   0
55  1.01471e+06 150  250 150   0
56  -1.0049e+06 150  250 150   0
57   1.0049e+06 150  250 150   0
58      -995098 150  250 150   0
59       995098 150  250 150   0
60      -985294 150  250 150   0
61       985294 150  250 150   0
62      -975490 150  250 150   0
63       975490 150  250 150   0
64      -965686 150  250 150   0
65       965686 150  250 150   0
66      -955882 150  250 150   0
67       955882 150  250 150   0
68      -946078 150  250 150   0
69       946078 150  250 150   0
70      -936275 150  250 150   0
71       936275 150  250 150   0
72      -926471 150  250 150   0
73       926471 150  250 150   0
74      -916667 150  250 150   0
75       916667 150  250 150   0
76      -906863 150  250 150   0
77       906863 150  250 150   0
78      -897059 150  250 150   0
79       897059 150  250 150   0
80      -887255 150  250 150   0
81       887255 150  250 150   0
82      -877451 150  250 150   0
83       877451 150  250 150   0
84      -867647 150  250 150   0
85       867647 150  250 150   0
86      -857843 150  250 150   0
87       857843 150  250 150   0
88      -848039 150  250 150   0
89       848039 150  250 150   0
90      -838235 150  250 150   0
91       838235 150  250 150   0
92      -828431 150  250 150   0
93       828431 150  250 150   0
94      -818627 150  250 150   0
95       818627 150  250 150   0
96      -808824 150  250 150   0
97       808824 150  250 150   0
98      -799020 150  250 150   0
99       799020 150  250 150   0
100      -789216 150  250 150   0
101       789216 150  250 150   0
102      -779412 150  250 150   0
103       779412 150  250 150   0
104      -769608 150  250 150   0
105       769608 150  250 150   0
106      -759804 150  250 150   0
107       759804 150  250 150   0
108      -750000 150  250 150   0
109       750000 150  250 150   0
110      -740196 150  250 150   0
111       740196 150  250 150   0
112      -730392 150  250 150   0
113       730392 150  250 150   0
114      -720588 150  250 150   0
115       720588 150  250 150   0
116      -710784 150  250 150   0
117       710784 150  250 150   0
118      -700980 150  250 150   0
119       700980 150  250 150   0
120      -691176 150  250 150   0
121       691176 150  250 150   0
122      -681373 150  250 150   0
123       681373 150  250 150   0
124      -671569 150  250 150   0
125       671569 150  250 150   0
126      -661765 150  250 150   0
127       661765 150  250 150   0
128      -651961 150  250 150   0
129       651961 150  250 150   0
130      -642157 150  250 150   0
131       642157 150  250 150   0
132      -632353 150  250 150   0
133       632353 150  250 150   0
134      -622549 150  250 150   0
135       622549 150  250 150   0
136      -612745 150  250 150   0
137       612745 150  250 150   0
138      -602941 150  250 150   0
139       602941 150  250 150   0
140      -593137 150  250 150   0
141       593137 150  250 150   0
142      -583333 150  250 150   0
143       583333 150  250 150   0
144      -573529 150  250 150   0
145       573529 150  250 150   0
146      -563725 150  250 150   0
147       563725 150  250 150   0
148      -553922 150  250 150   0
149       553922 150  250 150   0
150      -544118 150  250 150   0
151       544118 150  250 150   0
152      -534314 150  250 150   0
153       534314 150  250 150   0
154      -524510 150  250 150   0
155       524510 150  250 150   0
156      -514706 150  250 150   0
157       514706 150  250 150   0
158      -504902 150  250 150   0
159       504902 150  250 150   0
160      -495098 150  250 150   0
161       495098 150  250 150   0
162      -485294 150  250 150   0
163       485294 150  250 150   0
164      -475490 150  250 150   0
165       475490 150  250 150   0
166      -465686 150  250 150   0
167       465686 150  250 150   0
168      -455882 150  250 150   0
169       455882 150  250 150   0
170      -446078 150  250 150   0
171       446078 150  250 150   0
172      -436275 150  250 150   0
173       436275 150  250 150   0
174      -426471 150  250 150   0
175       426471 150  250 150   0
176      -416667 150  250 150   0
177       416667 150  250 150   0
178      -406863 150  250 150   0
179       406863 150  250 150   0
180      -397059 150  250 150   0
181       397059 150  250 150   0
182      -387255 150  250 150   0
183       387255 150  250 150   0
184      -377451 150  250 150   0
185       377451 150  250 150   0
186      -367647 150  250 150   0
187       367647 150  250 150   0
188      -357843 150  250 150   0
189       357843 150  250 150   0
190      -348039 150  250 150   0
191       348039 150  250 150   0
192      -338235 150  250 150   0
193       338235 150  250 150   0
194      -328431 150  250 150   0
195       328431 150  250 150   0
196      -318627 150  250 150   0
197       318627 150  250 150   0
198      -308824 150  250 150   0
199       308824 150  250 150   0
200      -299020 150  250 150   0
201       299020 150  250 150   0
202      -289216 150  250 150   0
203       289216 150  250 150   0
204      -279412 150  250 150   0
205       279412 150  250 150   0
206      -269608 150  250 150   0
207       269608 150  250 150   0
208      -259804 150  250 150   0
209       259804 150  250 150   0
210      -250000 150  250 150   0
211       250000 150  250 150   0
212      -240196 150  250 150   0
213       240196 150  250 150   0
214      -230392 150  250 150   0
215       230392 150  250 150   0
216      -220588 150  250 150   0
217       220588 150  250 150   0
218      -210784 150  250 150   0
219       210784 150  250 150   0
220      -200980 150  250 150   0
221       200980 150  250 150   0
222      -191176 150  250 150   0
223       191176 150  250 150   0
224      -181373 150  250 150   0
225       181373 150  250 150   0
226      -171569 150  250 150   0
227       171569 150  250 150   0
228      -161765 150  250 150   0
229       161765 150  250 150   0
230      -151961 150  250 150   0
231       151961 150  250 150   0
232      -142157 150  250 150   0
233       142157 150  250 150   0
234      -132353 150  250 150   0
235       132353 150  250 150   0
236      -122549 150  250 150   0
237       122549 150  250 150   0
238      -112745 150  250 150   0
239       112745 150  250 150   0
240      -102941 150  250 150   0
241       102941 150  250 150   0
242     -93137.3 150  250 150   0
243      93137.3 150  250 150   0
244     -83333.3 150  250 150   0
245      83333.3 150  250 150   0
246     -73529.4 150  250 150   0
247      73529.4 150  250 150   0
248     -63725.5 150  250 150   0
249      63725.5 150  250 150   0
250     -53921.6 150  250 150   0
251      53921.6 150  250 150   0
252     -44117.6 150  250 150   0
253      44117.6 150  250 150   0
254     -34313.7 150  250 150   0
255      34313.7 150  250 150   0
256     -24509.8 150  250 150   0
257      24509.8 150  250 150   0
258     -14705.9 150  250 150   0
259      14705.9 150  250 150   0
260     -4901.96 150  250 150   0
261      4901.96 150  250 150   0

# Format of ADC events:
# id num dwell delay freq phase
# ..  ..    ns    us   Hz   rad
[ADC]
1 256 5000 100 0 0

# Sequence Shapes
[SHAPES]

shape_id 1
num_samples 1000
0.001001001
0.00300886869
0.00502433213
0.00704711925
0.00907695593
0.011113566
0.0131566713
0.0152059917
0.017261245
0.0193221473
0.0213884125
0.023459753
0.0255358792
0.0276164996
0.0297013211
0.0317900488
0.0338823861
0.0359780348
0.0380766951
0.0401780654
0.0422818427
0.0443877225
0.0464953987
0.0486045638
0.050714909
0.0528261238
0.0549378966
0.0570499144
0.0591618631
0.0612734269
0.0633842894
0.0654941325
0.0676026372
0.0697094836
0.0718143503
0.0739169152
0.0760168551
0.078113846
0.0802075628
0.0822976796
0.0843838697
0.0864658057
0.0885431592
0.0906156012
0.0926828023
0.0947444321
0.0968001597
0.0988496537
0.100892582
0.102928613
0.104957413
0.106978649
0.108991988
0.110997095
0.112993637
0.114981279
0.116959687
0.118928525
0.12088746
0.122836156
0.124774278
0.126701492
0.128617463
0.130521856
0.132414336
0.134294569
0.136162222
0.13801696
0.139858449
0.141686357
0.143500351
0.145300098
0.147085267
0.148855526
0.150610545
0.152349994
0.154073542
0.155780861
0.157471624
0.159145503
0.160802171
0.162441303
0.164062574
0.165665662
0.167250242
0.168815993
0.170362595
0.171889728
0.173397074
0.174884316
0.176351138
0.177797226
0.179222265
0.180625945
0.182007955
0.183367986
0.184705731
0.186020883
0.187313138
0.188582193
0.189827748
0.191049503
0.19224716
0.193420424
0.194569001
0.195692597
0.196790924
0.197863693
0.198910617
0.199931412
0.200925797
0.20189349
0.202834214
0.203747694
0.204633655
0.205491826
0.206321939
0.207123726
0.207896924
0.20864127
0.209356505
0.210042373
0.210698618
0.211324989
0.211921237
0.212487114
0.213022378
0.213526787
0.214000102
0.214442088
0.214852512
0.215231144
0.215577756
0.215892124
0.216174028
0.216423248
0.21663957
0.216822781
0.216972672
0.217089037
0.217171673
0.217220381
0.217234963
0.217215227
0.217160983
0.217072044
0.216948227
0.216789351
0.21659524
0.216365722
0.216100625
0.215799784
0.215463037
0.215090223
0.214681188
0.214235779
0.213753848
0.21323525
0.212679844
0.212087492
0.211458061
0.210791421
0.210087446
0.209346012
0.208567002
0.2077503
0.206895796
0.206003383
0.205072957
0.20410442
0.203097675
0.202052632
0.200969203
0.199847305
0.198686858
0.197487787
0.196250022
0.194973494
0.19365814
0.192303903
0.190910725
0.189478558
0.188007355
0.186497072
0.184947672
0.18335912
0.181731387
0.180064448
0.17835828
0.176612867
0.174828196
0.173004258
0.171141048
0.169238568
0.16729682
0.165315814
0.163295562
0.161236081
0.159137394
0.156999525
0.154822505
0.152606368
0.150351154
0.148056905
0.14572367
0.143351499
0.14094045
0.138490582
0.136001962
0.133474658
0.130908744
0.128304299
0.125661404
0.122980148
0.12026062
0.117502918
0.11470714
0.111873391
0.10900178
0.10609242
0.103145429
0.100160928
0.0971390435
0.0940799061
0.0909836506
0.0878504161
0.0846803461
0.0814735886
0.0782302954
0.0749506232
0.0716347325
0.0682827884
0.06489496
0.0614714209
0.0580123489
0.0545179258
0.0509883379
0.0474237756
0.0438244335
0.0401905103
0.036522209
0.0328197366
0.0290833045
0.0253131278
0.0215094262
0.017672423
0.013802346
0.00989942667
0.00596390077
0.00199600798
0.00200400802
0.00603589957
0.0100994151
0.014194299
0.0183202919
0.0224771304
0.0266645474
0.0308822718
0.0351300286
0.0394075394
0.0437145216
0.0480506891
0.052415752
0.0568094167
0.0612313859
0.0656813588
0.0701590308
0.0746640938
0.0791962362
0.0837551428
0.0883404949
0.0929519703
0.0975892434
0.102251985
0.106939863
0.111652542
0.116389682
0.121150942
0.125935975
0.130744433
0.135575963
0.140430211
0.145306818
0.150205423
0.155125662
0.160067166
0.165029566
0.170012488
0.175015557
0.180038392
0.185080612
0.190141832
0.195221664
0.200319719
0.205435603
0.210568921
0.215719275
0.220886263
0.226069483
0.231268529
0.236482993
0.241712464
0.246956529
0.252214773
0.257486779
0.262772126
0.268070393
0.273381155
0.278703987
0.28403846
0.289384144
0.294740606
0.300107413
0.305484129
0.310870314
0.316265531
0.321669336
0.327081288
0.332500941
0.337927849
0.343361564
0.348801637
0.354247615
0.359699048
0.365155482
0.37061646
0.376081527
0.381550226
0.387022096
0.39249668
0.397973514
0.403452138
0.408932089
0.414412901
0.419894111
0.425375253
0.430855859
0.436335464
0.441813598
0.447289793
0.452763581
0.45823449
0.463702052
0.469165794
0.474625247
0.480079938
0.485529396
0.490973149
0.496410725
0.501841651
0.507265454
0.512681663
0.518089805
0.523489407
0.528879998
0.534261104
0.539632255
0.544992978
0.550342802
0.555681256
0.561007869
0.566322172
0.571623694
0.576911968
0.582186523
0.587446893
0.59269261
0.597923209
0.603138223
0.608337189
0.613519643
0.618685121
0.623833162
0.628963307
0.634075094
0.639168067
0.644241768
0.64929574
0.654329531
0.659342686
0.664334755
0.669305286
0.674253831
0.679179944
0.684083178
0.68896309
0.693819238
0.698651182
0.703458483
0.708240704
0.71299741
0.71772817
0.722432552
0.727110128
0.73176047
0.736383155
0.74097776
0.745543866
0.750081054
0.75458891
0.759067019
0.763514973
0.767932362
0.772318781
0.776673827
0.7809971
0.785288201
0.789546737
0.793772314
0.797964543
0.802123037
0.806247413
0.81033729
0.814392289
0.818412036
0.822396158
0.826344288
0.830256059
0.834131108
0.837969077
0.841769609
0.845532351
0.849256954
0.852943072
0.856590361
0.860198484
0.863767103
0.867295886
0.870784505
0.874232635
0.877639954
0.881006143
0.88433089
0.887613883
0.890854815
0.894053384
0.897209291
0.90032224
0.90339194
0.906418104
0.909400448
0.912338693
0.915232564
0.918081788
0.920886099
0.923645234
0.926358934
0.929026944
0.931649012
0.934224894
0.936754347
0.939237132
0.941673017
0.944061772
0.946403173
0.948696999
0.950943034
0.953141066
0.955290889
0.9573923
0.9594451
0.961449097
0.963404101
0.965309928
0.967166397
0.968973335
0.97073057
0.972437936
0.974095272
0.975702422
0.977259233
0.978765559
0.980221257
0.98162619
0.982980225
0.984283233
0.985535092
0.986735684
0.987884894
0.988982613
0.990028739
0.991023172
0.991965817
0.992856587
0.993695395
0.994482164
0.995216818
0.995899288
0.996529509
0.997107422
0.997632971
0.998106108
0.998526787
0.998894968
0.999210617
0.999473703
0.999684202
0.999842093
0.999947363
1
1
0.999947363
0.999842093
0.999684202
0.999473703
0.999210617
0.998894968
0.998526787
0.998106108
0.997632971
0.997107422
0.996529509
0.995899288
0.995216818
0.994482164
0.993695395
0.992856587
0.991965817
0.991023172
0.990028739
0.988982613
0.987884894
0.986735684
0.985535092
0.984283233
0.982980225
0.98162619
0.980221257
0.978765559
0.977259233
0.975702422
0.974095272
0.972437936
0.97073057
0.968973335
0.967166397
0.965309928
0.963404101
0.961449097
0.9594451
0.9573923
0.955290889
0.953141066
0.950943034
0.948696999
0.946403173
0.944061772
0.941673017
0.939237132
0.936754347
0.934224894
0.931649012
0.929026944
0.926358934
0.923645234
0.920886099
0.918081788
0.915232564
0.912338693
0.909400448
0.906418104
0.90339194
0.90032224
0.897209291
0.894053384
0.890854815
0.887613883
0.88433089
0.881006143
0.877639954
0.874232635
0.870784505
0.867295886
0.863767103
0.860198484
0.856590361
0.852943072
0.849256954
0.845532351
0.841769609
0.837969077
0.834131108
0.830256059
0.826344288
0.822396158
0.818412036
0.814392289
0.81033729
0.806247413
0.802123037
0.797964543
0.793772314
0.789546737
0.785288201
0.7809971
0.776673827
0.772318781
0.767932362
0.763514973
0.759067019
0.75458891
0.750081054
0.745543866
0.74097776
0.736383155
0.73176047
0.727110128
0.722432552
0.71772817
0.71299741
0.708240704
0.703458483
0.698651182
0.693819238
0.68896309
0.684083178
0.679179944
0.674253831
0.669305286
0.664334755
0.659342686
0.654329531
0.64929574
0.644241768
0.639168067
0.634075094
0.628963307
0.623833162
0.618685121
0.613519643
0.608337189
0.603138223
0.597923209
0.59269261
0.587446893
0.582186523
0.576911968
0.571623694
0.566322172
0.561007869
0.555681256
0.550342802
0.544992978
0.539632255
0.534261104
0.528879998
0.523489407
0.518089805
0.512681663
0.507265454
0.501841651
0.496410725
0.490973149
0.485529396
0.480079938
0.474625247
0.469165794
0.463702052
0.45823449
0.452763581
0.447289793
0.441813598
0.436335464
0.430855859
0.425375253
0.419894111
0.414412901
0.408932089
0.403452138
0.397973514
0.39249668
0.387022096
0.381550226
0.376081527
0.37061646
0.365155482
0.359699048
0.354247615
0.348801637
0.343361564
0.337927849
0.332500941
0.327081288
0.321669336
0.316265531
0.310870314
0.305484129
0.300107413
0.294740606
0.289384144
0.28403846
0.278703987
0.273381155
0.268070393
0.262772126
0.257486779
0.252214773
0.246956529
0.241712464
0.236482993
0.231268529
0.226069483
0.220886263
0.215719275
0.210568921
0.205435603
0.200319719
0.195221664
0.190141832
0.185080612
0.180038392
0.175015557
0.170012488
0.165029566
0.160067166
0.155125662
0.150205423
0.145306818
0.140430211
0.135575963
0.130744433
0.125935975
0.121150942
0.116389682
0.111652542
0.106939863
0.102251985
0.0975892434
0.0929519703
0.0883404949
0.0837551428
0.0791962362
0.0746640938
0.0701590308
0.0656813588
0.0612313859
0.0568094167
0.052415752
0.0480506891
0.0437145216
0.0394075394
0.0351300286
0.0308822718
0.0266645474
0.0224771304
0.0183202919
0.014194299
0.0100994151
0.00603589957
0.00200400802
0.00199600798
0.00596390077
0.00989942667
0.013802346
0.017672423
0.0215094262
0.0253131278
0.0290833045
0.0328197366
0.036522209
0.0401905103
0.0438244335
0.0474237756
0.0509883379
0.0545179258
0.0580123489
0.0614714209
0.06489496
0.0682827884
0.0716347325
0.0749506232
0.0782302954
0.0814735886
0.0846803461
0.0878504161
0.0909836506
0.0940799061
0.0971390435
0.100160928
0.103145429
0.10609242
0.10900178
0.111873391
0.11470714
0.117502918
0.12026062
0.122980148
0.125661404
0.128304299
0.130908744
0.133474658
0.136001962
0.138490582
0.14094045
0.143351499
0.14572367
0.148056905
0.150351154
0.152606368
0.154822505
0.156999525
0.159137394
0.161236081
0.163295562
0.165315814
0.16729682
0.169238568
0.171141048
0.173004258
0.174828196
0.176612867
0.17835828
0.180064448
0.181731387
0.18335912
0.184947672
0.186497072
0.188007355
0.189478558
0.190910725
0.192303903
0.19365814
0.194973494
0.196250022
0.197487787
0.198686858
0.199847305
0.200969203
0.202052632
0.203097675
0.20410442
0.205072957
0.206003383
0.206895796
0.2077503
0.208567002
0.209346012
0.210087446
0.210791421
0.211458061
0.212087492
0.212679844
0.21323525
0.213753848
0.214235779
0.214681188
0.215090223
0.215463037
0.215799784
0.216100625
0.216365722
0.21659524
0.216789351
0.216948227
0.217072044
0.217160983
0.217215227
0.217234963
0.217220381
0.217171673
0.217089037
0.216972672
0.216822781
0.21663957
0.216423248
0.216174028
0.215892124
0.215577756
0.215231144
0.214852512
0.214442088
0.214000102
0.213526787
0.213022378
0.212487114
0.211921237
0.211324989
0.210698618
0.210042373
0.209356505
0.20864127
0.207896924
0.207123726
0.206321939
0.205491826
0.204633655
0.203747694
0.202834214
0.20189349
0.200925797
0.199931412
0.198910617
0.197863693
0.196790924
0.195692597
0.194569001
0.193420424
0.19224716
0.191049503
0.189827748
0.188582193
