# Pulseq sequence file
# Created by PyPulseq

[VERSION]
major 1
minor 4
revision 2

[DEFINITIONS]
AdcRasterTime 1e-07 
BlockDurationRaster 1e-05 
GradientRasterTime 1e-05 
Name humble_bssfp 
RadiofrequencyRasterTime 1e-06 
TotalDuration 1.09269 

# Format of blocks:
# NUM DUR RF  GX  GY  GZ  ADC  EXT
[BLOCKS]
   1 120   1   0   0   1  0  0
   2  93   0   0   0   0  0  0
   3 120   2   0   0   1  0  0
   4  82   0   4   3   2  0  0
   5 142   0   5   0   0  1  0
   6  82   0   4   6   7  0  0
   7 120   3   0   0   1  0  0
   8  82   0   4   8   2  0  0
   9 142   0   5   0   0  2  0
  10  82   0   4   9   7  0  0
  11 120   2   0   0   1  0  0
  12  82   0   4  10   2  0  0
  13 142   0   5   0   0  1  0
  14  82   0   4  11   7  0  0
  15 120   3   0   0   1  0  0
  16  82   0   4  12   2  0  0
  17 142   0   5   0   0  2  0
  18  82   0   4  13   7  0  0
  19 120   2   0   0   1  0  0
  20  82   0   4  14   2  0  0
  21 142   0   5   0   0  1  0
  22  82   0   4  15   7  0  0
  23 120   3   0   0   1  0  0
  24  82   0   4  16   2  0  0
  25 142   0   5   0   0  2  0
  26  82   0   4  17   7  0  0
  27 120   2   0   0   1  0  0
  28  82   0   4  18   2  0  0
  29 142   0   5   0   0  1  0
  30  82   0   4  19   7  0  0
  31 120   3   0   0   1  0  0
  32  82   0   4  20   2  0  0
  33 142   0   5   0   0  2  0
  34  82   0   4  21   7  0  0
  35 120   2   0   0   1  0  0
  36  82   0   4  22   2  0  0
  37 142   0   5   0   0  1  0
  38  82   0   4  23   7  0  0
  39 120   3   0   0   1  0  0
  40  82   0   4  24   2  0  0
  41 142   0   5   0   0  2  0
  42  82   0   4  25   7  0  0
  43 120   2   0   0   1  0  0
  44  82   0   4  26   2  0  0
  45 142   0   5   0   0  1  0
  46  82   0   4  27   7  0  0
  47 120   3   0   0   1  0  0
  48  82   0   4  28   2  0  0
  49 142   0   5   0   0  2  0
  50  82   0   4  29   7  0  0
  51 120   2   0   0   1  0  0
  52  82   0   4  30   2  0  0
  53 142   0   5   0   0  1  0
  54  82   0   4  31   7  0  0
  55 120   3   0   0   1  0  0
  56  82   0   4  32   2  0  0
  57 142   0   5   0   0  2  0
  58  82   0   4  33   7  0  0
  59 120   2   0   0   1  0  0
  60  82   0   4  34   2  0  0
  61 142   0   5   0   0  1  0
  62  82   0   4  35   7  0  0
  63 120   3   0   0   1  0  0
  64  82   0   4  36   2  0  0
  65 142   0   5   0   0  2  0
  66  82   0   4  37   7  0  0
  67 120   2   0   0   1  0  0
  68  82   0   4  38   2  0  0
  69 142   0   5   0   0  1  0
  70  82   0   4  39   7  0  0
  71 120   3   0   0   1  0  0
  72  82   0   4  40   2  0  0
  73 142   0   5   0   0  2  0
  74  82   0   4  41   7  0  0
  75 120   2   0   0   1  0  0
  76  82   0   4  42   2  0  0
  77 142   0   5   0   0  1  0
  78  82   0   4  43   7  0  0
  79 120   3   0   0   1  0  0
  80  82   0   4  44   2  0  0
  81 142   0   5   0   0  2  0
  82  82   0   4  45   7  0  0
  83 120   2   0   0   1  0  0
  84  82   0   4  46   2  0  0
  85 142   0   5   0   0  1  0
  86  82   0   4  47   7  0  0
  87 120   3   0   0   1  0  0
  88  82   0   4  48   2  0  0
  89 142   0   5   0   0  2  0
  90  82   0   4  49   7  0  0
  91 120   2   0   0   1  0  0
  92  82   0   4  50   2  0  0
  93 142   0   5   0   0  1  0
  94  82   0   4  51   7  0  0
  95 120   3   0   0   1  0  0
  96  82   0   4  52   2  0  0
  97 142   0   5   0   0  2  0
  98  82   0   4  53   7  0  0
  99 120   2   0   0   1  0  0
 100  82   0   4  54   2  0  0
 101 142   0   5   0   0  1  0
 102  82   0   4  55   7  0  0
 103 120   3   0   0   1  0  0
 104  82   0   4  56   2  0  0
 105 142   0   5   0   0  2  0
 106  82   0   4  57   7  0  0
 107 120   2   0   0   1  0  0
 108  82   0   4  58   2  0  0
 109 142   0   5   0   0  1  0
 110  82   0   4  59   7  0  0
 111 120   3   0   0   1  0  0
 112  82   0   4  60   2  0  0
 113 142   0   5   0   0  2  0
 114  82   0   4  61   7  0  0
 115 120   2   0   0   1  0  0
 116  82   0   4  62   2  0  0
 117 142   0   5   0   0  1  0
 118  82   0   4  63   7  0  0
 119 120   3   0   0   1  0  0
 120  82   0   4  64   2  0  0
 121 142   0   5   0   0  2  0
 122  82   0   4  65   7  0  0
 123 120   2   0   0   1  0  0
 124  82   0   4  66   2  0  0
 125 142   0   5   0   0  1  0
 126  82   0   4  67   7  0  0
 127 120   3   0   0   1  0  0
 128  82   0   4  68   2  0  0
 129 142   0   5   0   0  2  0
 130  82   0   4  69   7  0  0
 131 120   2   0   0   1  0  0
 132  82   0   4  70   2  0  0
 133 142   0   5   0   0  1  0
 134  82   0   4  71   7  0  0
 135 120   3   0   0   1  0  0
 136  82   0   4  72   2  0  0
 137 142   0   5   0   0  2  0
 138  82   0   4  73   7  0  0
 139 120   2   0   0   1  0  0
 140  82   0   4  74   2  0  0
 141 142   0   5   0   0  1  0
 142  82   0   4  75   7  0  0
 143 120   3   0   0   1  0  0
 144  82   0   4  76   2  0  0
 145 142   0   5   0   0  2  0
 146  82   0   4  77   7  0  0
 147 120   2   0   0   1  0  0
 148  82   0   4  78   2  0  0
 149 142   0   5   0   0  1  0
 150  82   0   4  79   7  0  0
 151 120   3   0   0   1  0  0
 152  82   0   4  80   2  0  0
 153 142   0   5   0   0  2  0
 154  82   0   4  81   7  0  0
 155 120   2   0   0   1  0  0
 156  82   0   4  82   2  0  0
 157 142   0   5   0   0  1  0
 158  82   0   4  83   7  0  0
 159 120   3   0   0   1  0  0
 160  82   0   4  84   2  0  0
 161 142   0   5   0   0  2  0
 162  82   0   4  85   7  0  0
 163 120   2   0   0   1  0  0
 164  82   0   4  86   2  0  0
 165 142   0   5   0   0  1  0
 166  82   0   4  87   7  0  0
 167 120   3   0   0   1  0  0
 168  82   0   4  88   2  0  0
 169 142   0   5   0   0  2  0
 170  82   0   4  89   7  0  0
 171 120   2   0   0   1  0  0
 172  82   0   4  90   2  0  0
 173 142   0   5   0   0  1  0
 174  82   0   4  91   7  0  0
 175 120   3   0   0   1  0  0
 176  82   0   4  92   2  0  0
 177 142   0   5   0   0  2  0
 178  82   0   4  93   7  0  0
 179 120   2   0   0   1  0  0
 180  82   0   4  94   2  0  0
 181 142   0   5   0   0  1  0
 182  82   0   4  95   7  0  0
 183 120   3   0   0   1  0  0
 184  82   0   4  96   2  0  0
 185 142   0   5   0   0  2  0
 186  82   0   4  97   7  0  0
 187 120   2   0   0   1  0  0
 188  82   0   4  98   2  0  0
 189 142   0   5   0   0  1  0
 190  82   0   4  99   7  0  0
 191 120   3   0   0   1  0  0
 192  82   0   4 100   2  0  0
 193 142   0   5   0   0  2  0
 194  82   0   4 101   7  0  0
 195 120   2   0   0   1  0  0
 196  82   0   4 102   2  0  0
 197 142   0   5   0   0  1  0
 198  82   0   4 103   7  0  0
 199 120   3   0   0   1  0  0
 200  82   0   4 104   2  0  0
 201 142   0   5   0   0  2  0
 202  82   0   4 105   7  0  0
 203 120   2   0   0   1  0  0
 204  82   0   4 106   2  0  0
 205 142   0   5   0   0  1  0
 206  82   0   4 107   7  0  0
 207 120   3   0   0   1  0  0
 208  82   0   4 108   2  0  0
 209 142   0   5   0   0  2  0
 210  82   0   4 109   7  0  0
 211 120   2   0   0   1  0  0
 212  82   0   4 110   2  0  0
 213 142   0   5   0   0  1  0
 214  82   0   4 111   7  0  0
 215 120   3   0   0   1  0  0
 216  82   0   4 112   2  0  0
 217 142   0   5   0   0  2  0
 218  82   0   4 113   7  0  0
 219 120   2   0   0   1  0  0
 220  82   0   4 114   2  0  0
 221 142   0   5   0   0  1  0
 222  82   0   4 115   7  0  0
 223 120   3   0   0   1  0  0
 224  82   0   4 116   2  0  0
 225 142   0   5   0   0  2  0
 226  82   0   4 117   7  0  0
 227 120   2   0   0   1  0  0
 228  82   0   4 118   2  0  0
 229 142   0   5   0   0  1  0
 230  82   0   4 119   7  0  0
 231 120   3   0   0   1  0  0
 232  82   0   4 120   2  0  0
 233 142   0   5   0   0  2  0
 234  82   0   4 121   7  0  0
 235 120   2   0   0   1  0  0
 236  82   0   4 122   2  0  0
 237 142   0   5   0   0  1  0
 238  82   0   4 123   7  0  0
 239 120   3   0   0   1  0  0
 240  82   0   4 124   2  0  0
 241 142   0   5   0   0  2  0
 242  82   0   4 125   7  0  0
 243 120   2   0   0   1  0  0
 244  82   0   4 126   2  0  0
 245 142   0   5   0   0  1  0
 246  82   0   4 127   7  0  0
 247 120   3   0   0   1  0  0
 248  82   0   4 128   2  0  0
 249 142   0   5   0   0  2  0
 250  82   0   4 129   7  0  0
 251 120   2   0   0   1  0  0
 252  82   0   4 130   2  0  0
 253 142   0   5   0   0  1  0
 254  82   0   4 131   7  0  0
 255 120   3   0   0   1  0  0
 256  82   0   4 132   2  0  0
 257 142   0   5   0   0  2  0
 258  82   0   4 133   7  0  0
 259 120   2   0   0   1  0  0
 260  82   0   4 134   2  0  0
 261 142   0   5   0   0  1  0
 262  82   0   4 135   7  0  0
 263 120   3   0   0   1  0  0
 264  82   0   4 136   2  0  0
 265 142   0   5   0   0  2  0
 266  82   0   4 137   7  0  0
 267 120   2   0   0   1  0  0
 268  82   0   4 138   2  0  0
 269 142   0   5   0   0  1  0
 270  82   0   4 139   7  0  0
 271 120   3   0   0   1  0  0
 272  82   0   4 140   2  0  0
 273 142   0   5   0   0  2  0
 274  82   0   4 141   7  0  0
 275 120   2   0   0   1  0  0
 276  82   0   4 142   2  0  0
 277 142   0   5   0   0  1  0
 278  82   0   4 143   7  0  0
 279 120   3   0   0   1  0  0
 280  82   0   4 144   2  0  0
 281 142   0   5   0   0  2  0
 282  82   0   4 145   7  0  0
 283 120   2   0   0   1  0  0
 284  82   0   4 146   2  0  0
 285 142   0   5   0   0  1  0
 286  82   0   4 147   7  0  0
 287 120   3   0   0   1  0  0
 288  82   0   4 148   2  0  0
 289 142   0   5   0   0  2  0
 290  82   0   4 149   7  0  0
 291 120   2   0   0   1  0  0
 292  82   0   4 150   2  0  0
 293 142   0   5   0   0  1  0
 294  82   0   4 151   7  0  0
 295 120   3   0   0   1  0  0
 296  82   0   4 152   2  0  0
 297 142   0   5   0   0  2  0
 298  82   0   4 153   7  0  0
 299 120   2   0   0   1  0  0
 300  82   0   4 154   2  0  0
 301 142   0   5   0   0  1  0
 302  82   0   4 155   7  0  0
 303 120   3   0   0   1  0  0
 304  82   0   4 156   2  0  0
 305 142   0   5   0   0  2  0
 306  82   0   4 157   7  0  0
 307 120   2   0   0   1  0  0
 308  82   0   4 158   2  0  0
 309 142   0   5   0   0  1  0
 310  82   0   4 159   7  0  0
 311 120   3   0   0   1  0  0
 312  82   0   4 160   2  0  0
[RF]
1      70.6824 1 2 0 100 0 0
2      141.365 1 2 0 100 0 0
3      141.365 1 3 0 100 0 0

# Format of trapezoid gradients:
# id amplitude rise flat fall delay
# ..      Hz/m   us   us   us    us
[TRAP]
 1       400000 100 1000 100   0
 2      -956522 230    0 230   0
 3    -1.25e+06 300  100 300   0
 4 -1.25656e+06 300  220 300   0
 5  1.13636e+06 270  880 270   0
 6     1.25e+06 300  100 300   0
 7      -956522 230    0 230 360
 8  -1.2402e+06 300  100 300   0
 9   1.2402e+06 300  100 300   0
10 -1.23039e+06 300  100 300   0
11  1.23039e+06 300  100 300   0
12 -1.22059e+06 300  100 300   0
13  1.22059e+06 300  100 300   0
14 -1.21078e+06 300  100 300   0
15  1.21078e+06 300  100 300   0
16 -1.20098e+06 300  100 300   0
17  1.20098e+06 300  100 300   0
18 -1.19118e+06 300  100 300   0
19  1.19118e+06 300  100 300   0
20 -1.18137e+06 300  100 300   0
21  1.18137e+06 300  100 300   0
22 -1.17157e+06 300  100 300   0
23  1.17157e+06 300  100 300   0
24 -1.16176e+06 300  100 300   0
25  1.16176e+06 300  100 300   0
26 -1.15196e+06 300  100 300   0
27  1.15196e+06 300  100 300   0
28 -1.14216e+06 300  100 300   0
29  1.14216e+06 300  100 300   0
30 -1.13235e+06 300  100 300   0
31  1.13235e+06 300  100 300   0
32 -1.12255e+06 300  100 300   0
33  1.12255e+06 300  100 300   0
34 -1.11275e+06 300  100 300   0
35  1.11275e+06 300  100 300   0
36 -1.10294e+06 300  100 300   0
37  1.10294e+06 300  100 300   0
38 -1.09314e+06 300  100 300   0
39  1.09314e+06 300  100 300   0
40 -1.08333e+06 300  100 300   0
41  1.08333e+06 300  100 300   0
42 -1.07353e+06 300  100 300   0
43  1.07353e+06 300  100 300   0
44 -1.06373e+06 300  100 300   0
45  1.06373e+06 300  100 300   0
46 -1.05392e+06 300  100 300   0
47  1.05392e+06 300  100 300   0
48 -1.04412e+06 300  100 300   0
49  1.04412e+06 300  100 300   0
50 -1.03431e+06 300  100 300   0
51  1.03431e+06 300  100 300   0
52 -1.02451e+06 300  100 300   0
53  1.02451e+06 300  100 300   0
54 -1.01471e+06 300  100 300   0
55  1.01471e+06 300  100 300   0
56  -1.0049e+06 300  100 300   0
57   1.0049e+06 300  100 300   0
58      -995098 300  100 300   0
59       995098 300  100 300   0
60      -985294 300  100 300   0
61       985294 300  100 300   0
62      -975490 300  100 300   0
63       975490 300  100 300   0
64      -965686 300  100 300   0
65       965686 300  100 300   0
66      -955882 300  100 300   0
67       955882 300  100 300   0
68      -946078 300  100 300   0
69       946078 300  100 300   0
70      -936275 300  100 300   0
71       936275 300  100 300   0
72      -926471 300  100 300   0
73       926471 300  100 300   0
74      -916667 300  100 300   0
75       916667 300  100 300   0
76      -906863 300  100 300   0
77       906863 300  100 300   0
78      -897059 300  100 300   0
79       897059 300  100 300   0
80      -887255 300  100 300   0
81       887255 300  100 300   0
82      -877451 300  100 300   0
83       877451 300  100 300   0
84      -867647 300  100 300   0
85       867647 300  100 300   0
86      -857843 300  100 300   0
87       857843 300  100 300   0
88      -848039 300  100 300   0
89       848039 300  100 300   0
90      -838235 300  100 300   0
91       838235 300  100 300   0
92      -828431 300  100 300   0
93       828431 300  100 300   0
94      -818627 300  100 300   0
95       818627 300  100 300   0
96      -808824 300  100 300   0
97       808824 300  100 300   0
98      -799020 300  100 300   0
99       799020 300  100 300   0
100      -789216 300  100 300   0
101       789216 300  100 300   0
102      -779412 300  100 300   0
103       779412 300  100 300   0
104      -769608 300  100 300   0
105       769608 300  100 300   0
106      -759804 300  100 300   0
107       759804 300  100 300   0
108      -750000 300  100 300   0
109       750000 300  100 300   0
110      -740196 300  100 300   0
111       740196 300  100 300   0
112      -730392 300  100 300   0
113       730392 300  100 300   0
114      -720588 300  100 300   0
115       720588 300  100 300   0
116      -710784 300  100 300   0
117       710784 300  100 300   0
118      -700980 300  100 300   0
119       700980 300  100 300   0
120      -691176 300  100 300   0
121       691176 300  100 300   0
122      -681373 300  100 300   0
123       681373 300  100 300   0
124      -671569 300  100 300   0
125       671569 300  100 300   0
126      -661765 300  100 300   0
127       661765 300  100 300   0
128      -651961 300  100 300   0
129       651961 300  100 300   0
130      -642157 300  100 300   0
131       642157 300  100 300   0
132      -632353 300  100 300   0
133       632353 300  100 300   0
134      -622549 300  100 300   0
135       622549 300  100 300   0
136      -612745 300  100 300   0
137       612745 300  100 300   0
138      -602941 300  100 300   0
139       602941 300  100 300   0
140      -593137 300  100 300   0
141       593137 300  100 300   0
142      -583333 300  100 300   0
143       583333 300  100 300   0
144      -573529 300  100 300   0
145       573529 300  100 300   0
146      -563725 300  100 300   0
147       563725 300  100 300   0
148      -553922 300  100 300   0
149       553922 300  100 300   0
150      -544118 300  100 300   0
151       544118 300  100 300   0
152      -534314 300  100 300   0
153       534314 300  100 300   0
154      -524510 300  100 300   0
155       524510 300  100 300   0
156      -514706 300  100 300   0
157       514706 300  100 300   0
158      -504902 300  100 300   0
159       504902 300  100 300   0
160      -495098 300  100 300   0
161       495098 300  100 300   0
162      -485294 300  100 300   0
163       485294 300  100 300   0
164      -475490 300  100 300   0
165       475490 300  100 300   0
166      -465686 300  100 300   0
167       465686 300  100 300   0
168      -455882 300  100 300   0
169       455882 300  100 300   0
170      -446078 300  100 300   0
171       446078 300  100 300   0
172      -436275 300  100 300   0
173       436275 300  100 300   0
174      -426471 300  100 300   0
175       426471 300  100 300   0
176      -416667 300  100 300   0
177       416667 300  100 300   0
178      -406863 300  100 300   0
179       406863 300  100 300   0
180      -397059 300  100 300   0
181       397059 300  100 300   0
182      -387255 300  100 300   0
183       387255 300  100 300   0
184      -377451 300  100 300   0
185       377451 300  100 300   0
186      -367647 300  100 300   0
187       367647 300  100 300   0
188      -357843 300  100 300   0
189       357843 300  100 300   0
190      -348039 300  100 300   0
191       348039 300  100 300   0
192      -338235 300  100 300   0
193       338235 300  100 300   0
194      -328431 300  100 300   0
195       328431 300  100 300   0
196      -318627 300  100 300   0
197       318627 300  100 300   0
198      -308824 300  100 300   0
199       308824 300  100 300   0
200      -299020 300  100 300   0
201       299020 300  100 300   0
202      -289216 300  100 300   0
203       289216 300  100 300   0
204      -279412 300  100 300   0
205       279412 300  100 300   0
206      -269608 300  100 300   0
207       269608 300  100 300   0
208      -259804 300  100 300   0
209       259804 300  100 300   0
210      -250000 300  100 300   0
211       250000 300  100 300   0
212      -240196 300  100 300   0
213       240196 300  100 300   0
214      -230392 300  100 300   0
215       230392 300  100 300   0
216      -220588 300  100 300   0
217       220588 300  100 300   0
218      -210784 300  100 300   0
219       210784 300  100 300   0
220      -200980 300  100 300   0
221       200980 300  100 300   0
222      -191176 300  100 300   0
223       191176 300  100 300   0
224      -181373 300  100 300   0
225       181373 300  100 300   0
226      -171569 300  100 300   0
227       171569 300  100 300   0
228      -161765 300  100 300   0
229       161765 300  100 300   0
230      -151961 300  100 300   0
231       151961 300  100 300   0
232      -142157 300  100 300   0
233       142157 300  100 300   0
234      -132353 300  100 300   0
235       132353 300  100 300   0
236      -122549 300  100 300   0
237       122549 300  100 300   0
238      -112745 300  100 300   0
239       112745 300  100 300   0
240      -102941 300  100 300   0
241       102941 300  100 300   0
242     -93137.3 300  100 300   0
243      93137.3 300  100 300   0
244     -83333.3 300  100 300   0
245      83333.3 300  100 300   0
246     -73529.4 300  100 300   0
247      73529.4 300  100 300   0
248     -63725.5 300  100 300   0
249      63725.5 300  100 300   0
250     -53921.6 300  100 300   0
251      53921.6 300  100 300   0
252     -44117.6 300  100 300   0
253      44117.6 300  100 300   0
254     -34313.7 300  100 300   0
255      34313.7 300  100 300   0
256     -24509.8 300  100 300   0
257      24509.8 300  100 300   0
258     -14705.9 300  100 300   0
259      14705.9 300  100 300   0
260     -4901.96 300  100 300   0
261      4901.96 300  100 300   0

# Format of ADC events:
# id num dwell delay freq phase
# ..  ..    ns    us   Hz   rad
[ADC]
1 128 6875 270 0 0
2 128 6875 270 0 3.14159

# Sequence Shapes
[SHAPES]

shape_id 1
num_samples 1000
0.001001001
0.00300898748
0.00502492725
0.00704878884
0.00908054056
0.0111201505
0.0131675864
0.0152228159
0.0172858062
0.0193565246
0.0214349378
0.0235210124
0.0256147148
0.0277160111
0.0298248671
0.0319412486
0.0340651209
0.0361964493
0.0383351985
0.0404813334
0.0426348183
0.0447956176
0.0469636952
0.0491390148
0.0513215401
0.0535112342
0.0557080604
0.0579119813
0.0601229597
0.062340958
0.0645659382
0.0667978623
0.0690366921
0.071282389
0.0735349142
0.0757942289
0.0780602939
0.0803330697
0.0826125167
0.0848985951
0.0871912649
0.0894904857
0.0917962171
0.0941084184
0.0964270487
0.0987520668
0.101083431
0.103421101
0.105765034
0.108115188
0.110471521
0.112833991
0.115202554
0.117577169
0.119957793
0.122344381
0.124736891
0.12713528
0.129539502
0.131949515
0.134365274
0.136786734
0.139213852
0.141646582
0.144084879
0.146528698
0.148977994
0.151432722
0.153892834
0.156358287
0.158829033
0.161305026
0.163786219
0.166272567
0.168764022
0.171260536
0.173762064
0.176268557
0.178779968
0.18129625
0.183817353
0.186343231
0.188873834
0.191409115
0.193949025
0.196493515
0.199042536
0.201596039
0.204153975
0.206716294
0.209282946
0.211853883
0.214429053
0.217008407
0.219591895
0.222179466
0.22477107
0.227366655
0.229966172
0.232569568
0.235176794
0.237787797
0.240402526
0.243020929
0.245642955
0.248268552
0.250897668
0.25353025
0.256166246
0.258805604
0.261448271
0.264094195
0.266743322
0.269395599
0.272050974
0.274709393
0.277370802
0.280035149
0.282702379
0.285372439
0.288045274
0.290720831
0.293399056
0.296079894
0.298763291
0.301449193
0.304137544
0.30682829
0.309521376
0.312216748
0.31491435
0.317614127
0.320316023
0.323019984
0.325725953
0.328433876
0.331143696
0.333855358
0.336568806
0.339283983
0.342000834
0.344719303
0.347439333
0.350160867
0.35288385
0.355608225
0.358333935
0.361060924
0.363789134
0.366518509
0.369248992
0.371980526
0.374713053
0.377446517
0.38018086
0.382916024
0.385651953
0.388388589
0.391125875
0.393863752
0.396602163
0.39934105
0.402080356
0.404820022
0.407559991
0.410300204
0.413040604
0.415781133
0.418521732
0.421262342
0.424002907
0.426743367
0.429483664
0.43222374
0.434963536
0.437702993
0.440442054
0.44318066
0.445918751
0.44865627
0.451393158
0.454129355
0.456864804
0.459599445
0.462333219
0.465066069
0.467797934
0.470528756
0.473258476
0.475987036
0.478714375
0.481440436
0.484165159
0.486888485
0.489610356
0.492330711
0.495049493
0.497766642
0.500482099
0.503195805
0.5059077
0.508617727
0.511325826
0.514031937
0.516736002
0.519437961
0.522137757
0.524835328
0.527530618
0.530223566
0.532914113
0.535602201
0.53828777
0.540970762
0.543651118
0.546328778
0.549003684
0.551675777
0.554344998
0.557011289
0.55967459
0.562334842
0.564991988
0.567645968
0.570296723
0.572944196
0.575588327
0.578229057
0.580866329
0.583500084
0.586130263
0.588756809
0.591379662
0.593998764
0.596614058
0.599225485
0.601832986
0.604436505
0.607035982
0.60963136
0.612222581
0.614809588
0.617392321
0.619970724
0.62254474
0.62511431
0.627679376
0.630239882
0.632795771
0.635346984
0.637893465
0.640435156
0.642972001
0.645503943
0.648030924
0.650552888
0.653069778
0.655581537
0.658088109
0.660589438
0.663085467
0.66557614
0.6680614
0.670541192
0.673015459
0.675484147
0.677947198
0.680404557
0.682856169
0.685301978
0.687741929
0.690175967
0.692604036
0.695026081
0.697442048
0.699851881
0.702255526
0.704652929
0.707044034
0.709428788
0.711807137
0.714179025
0.7165444
0.718903208
0.721255394
0.723600905
0.725939688
0.728271689
0.730596855
0.732915134
0.735226472
0.737530816
0.739828114
0.742118313
0.744401361
0.746677206
0.748945795
0.751207077
0.753461
0.755707512
0.757946563
0.760178099
0.762402072
0.764618428
0.766827118
0.769028091
0.771221296
0.773406683
0.775584201
0.777753801
0.779915433
0.782069047
0.784214594
0.786352023
0.788481286
0.790602335
0.792715119
0.79481959
0.796915701
0.799003401
0.801082644
0.803153381
0.805215565
0.807269148
0.809314082
0.81135032
0.813377816
0.815396521
0.817406391
0.819407377
0.821399434
0.823382516
0.825356577
0.827321571
0.829277452
0.831224176
0.833161697
0.83508997
0.83700895
0.838918593
0.840818855
0.842709692
0.844591059
0.846462914
0.848325211
0.850177909
0.852020964
0.853854334
0.855677975
0.857491845
0.859295903
0.861090105
0.862874411
0.864648779
0.866413167
0.868167535
0.869911841
0.871646045
0.873370106
0.875083985
0.876787641
0.878481034
0.880164125
0.881836876
0.883499246
0.885151196
0.886792689
0.888423687
0.890044149
0.89165404
0.893253322
0.894841956
0.896419906
0.897987135
0.899543607
0.901089284
0.902624131
0.904148112
0.905661191
0.907163333
0.908654502
0.910134663
0.911603783
0.913061826
0.914508758
0.915944546
0.917369155
0.918782553
0.920184706
0.921575581
0.922955146
0.924323368
0.925680215
0.927025655
0.928359657
0.92968219
0.930993221
0.932292722
0.93358066
0.934857006
0.93612173
0.937374802
0.938616192
0.939845871
0.941063811
0.942269983
0.943464359
0.944646909
0.945817607
0.946976425
0.948123336
0.949258312
0.950381327
0.951492355
0.952591369
0.953678343
0.954753253
0.955816071
0.956866775
0.957905338
0.958931736
0.959945945
0.960947941
0.961937701
0.962915201
0.963880419
0.96483333
0.965773913
0.966702146
0.967618007
0.968521474
0.969412526
0.970291142
0.9711573
0.972010982
0.972852165
0.973680832
0.974496961
0.975300535
0.976091533
0.976869937
0.977635729
0.97838889
0.979129404
0.979857251
0.980572416
0.981274881
0.98196463
0.982641646
0.983305913
0.983957416
0.984596139
0.985222068
0.985835186
0.986435481
0.987022937
0.98759754
0.988159278
0.988708137
0.989244104
0.989767166
0.99027731
0.990774526
0.9912588
0.991730122
0.99218848
0.992633864
0.993066263
0.993485666
0.993892065
0.994285448
0.994665808
0.995033134
0.995387418
0.995728653
0.996056829
0.996371939
0.996673975
0.996962931
0.997238799
0.997501573
0.997751247
0.997987815
0.998211271
0.99842161
0.998618827
0.998802917
0.998973876
0.999131701
0.999276386
0.999407929
0.999526326
0.999631575
0.999723674
0.999802619
0.99986841
0.999921045
0.999960522
0.999986841
1
1
0.999986841
0.999960522
0.999921045
0.99986841
0.999802619
0.999723674
0.999631575
0.999526326
0.999407929
0.999276386
0.999131701
0.998973876
0.998802917
0.998618827
0.99842161
0.998211271
0.997987815
0.997751247
0.997501573
0.997238799
0.996962931
0.996673975
0.996371939
0.996056829
0.995728653
0.995387418
0.995033134
0.994665808
0.994285448
0.993892065
0.993485666
0.993066263
0.992633864
0.99218848
0.991730122
0.9912588
0.990774526
0.99027731
0.989767166
0.989244104
0.988708137
0.988159278
0.98759754
0.987022937
0.986435481
0.985835186
0.985222068
0.984596139
0.983957416
0.983305913
0.982641646
0.98196463
0.981274881
0.980572416
0.979857251
0.979129404
0.97838889
0.977635729
0.976869937
0.976091533
0.975300535
0.974496961
0.973680832
0.972852165
0.972010982
0.9711573
0.970291142
0.969412526
0.968521474
0.967618007
0.966702146
0.965773913
0.96483333
0.963880419
0.962915201
0.961937701
0.960947941
0.959945945
0.958931736
0.957905338
0.956866775
0.955816071
0.954753253
0.953678343
0.952591369
0.951492355
0.950381327
0.949258312
0.948123336
0.946976425
0.945817607
0.944646909
0.943464359
0.942269983
0.941063811
0.939845871
0.938616192
0.937374802
0.93612173
0.934857006
0.93358066
0.932292722
0.930993221
0.92968219
0.928359657
0.927025655
0.925680215
0.924323368
0.922955146
0.921575581
0.920184706
0.918782553
0.917369155
0.915944546
0.914508758
0.913061826
0.911603783
0.910134663
0.908654502
0.907163333
0.905661191
0.904148112
0.902624131
0.901089284
0.899543607
0.897987135
0.896419906
0.894841956
0.893253322
0.89165404
0.890044149
0.888423687
0.886792689
0.885151196
0.883499246
0.881836876
0.880164125
0.878481034
0.876787641
0.875083985
0.873370106
0.871646045
0.869911841
0.868167535
0.866413167
0.864648779
0.862874411
0.861090105
0.859295903
0.857491845
0.855677975
0.853854334
0.852020964
0.850177909
0.848325211
0.846462914
0.844591059
0.842709692
0.840818855
0.838918593
0.83700895
0.83508997
0.833161697
0.831224176
0.829277452
0.827321571
0.825356577
0.823382516
0.821399434
0.819407377
0.817406391
0.815396521
0.813377816
0.81135032
0.809314082
0.807269148
0.805215565
0.803153381
0.801082644
0.799003401
0.796915701
0.79481959
0.792715119
0.790602335
0.788481286
0.786352023
0.784214594
0.782069047
0.779915433
0.777753801
0.775584201
0.773406683
0.771221296
0.769028091
0.766827118
0.764618428
0.762402072
0.760178099
0.757946563
0.755707512
0.753461
0.751207077
0.748945795
0.746677206
0.744401361
0.742118313
0.739828114
0.737530816
0.735226472
0.732915134
0.730596855
0.728271689
0.725939688
0.723600905
0.721255394
0.718903208
0.7165444
0.714179025
0.711807137
0.709428788
0.707044034
0.704652929
0.702255526
0.699851881
0.697442048
0.695026081
0.692604036
0.690175967
0.687741929
0.685301978
0.682856169
0.680404557
0.677947198
0.675484147
0.673015459
0.670541192
0.6680614
0.66557614
0.663085467
0.660589438
0.658088109
0.655581537
0.653069778
0.650552888
0.648030924
0.645503943
0.642972001
0.640435156
0.637893465
0.635346984
0.632795771
0.630239882
0.627679376
0.62511431
0.62254474
0.619970724
0.617392321
0.614809588
0.612222581
0.60963136
0.607035982
0.604436505
0.601832986
0.599225485
0.596614058
0.593998764
0.591379662
0.588756809
0.586130263
0.583500084
0.580866329
0.578229057
0.575588327
0.572944196
0.570296723
0.567645968
0.564991988
0.562334842
0.55967459
0.557011289
0.554344998
0.551675777
0.549003684
0.546328778
0.543651118
0.540970762
0.53828777
0.535602201
0.532914113
0.530223566
0.527530618
0.524835328
0.522137757
0.519437961
0.516736002
0.514031937
0.511325826
0.508617727
0.5059077
0.503195805
0.500482099
0.497766642
0.495049493
0.492330711
0.489610356
0.486888485
0.484165159
0.481440436
0.478714375
0.475987036
0.473258476
0.470528756
0.467797934
0.465066069
0.462333219
0.459599445
0.456864804
0.454129355
0.451393158
0.44865627
0.445918751
0.44318066
0.440442054
0.437702993
0.434963536
0.43222374
0.429483664
0.426743367
0.424002907
0.421262342
0.418521732
0.415781133
0.413040604
0.410300204
0.407559991
0.404820022
0.402080356
0.39934105
0.396602163
0.393863752
0.391125875
0.388388589
0.385651953
0.382916024
0.38018086
0.377446517
0.374713053
0.371980526
0.369248992
0.366518509
0.363789134
0.361060924
0.358333935
0.355608225
0.35288385
0.350160867
0.347439333
0.344719303
0.342000834
0.339283983
0.336568806
0.333855358
0.331143696
0.328433876
0.325725953
0.323019984
0.320316023
0.317614127
0.31491435
0.312216748
0.309521376
0.30682829
0.304137544
0.301449193
0.298763291
0.296079894
0.293399056
0.290720831
0.288045274
0.285372439
0.282702379
0.280035149
0.277370802
0.274709393
0.272050974
0.269395599
0.266743322
0.264094195
0.261448271
0.258805604
0.256166246
0.25353025
0.250897668
0.248268552
0.245642955
0.243020929
0.240402526
0.237787797
0.235176794
0.232569568
0.229966172
0.227366655
0.22477107
0.222179466
0.219591895
0.217008407
